# time    dist   theta      vl      vr 
  0.17,  0.206,  0.017,  0.097,  0.094
  0.30,  0.206,  0.017,  0.090,  0.081
  0.40,  0.206,  0.017,  0.090,  0.078
  0.51,  0.206,  0.017,  0.087,  0.073
  0.61, -0.070, -0.000,  0.039,  0.024
  0.75,  0.206,  0.017,  0.041,  0.024
  0.85,  0.206,  0.017,  0.043,  0.025
  0.95,  0.206,  0.017,  0.045,  0.025
  1.06,  0.206,  0.017,  0.047,  0.025
  1.17,  0.206,  0.017,  0.048,  0.025
  1.30,  0.206,  0.017,  0.050,  0.026
  1.41,  0.206,  0.017,  0.051,  0.026
  1.51,  0.206,  0.017,  0.052,  0.026
  1.62,  0.232,  0.023,  0.025,  0.005
  1.76, -0.070, -0.000, -0.045, -0.064
  1.89,  0.207, -0.284, -0.051, -0.027
  2.00,  0.141,  0.414, -0.071, -0.022
  2.13,  0.212, -0.686, -0.128,  0.078
  2.25, -0.070, -0.000, -0.180,  0.113
  2.38,  0.241, -0.737, -0.217,  0.232
  2.48,  0.241, -0.737, -0.241,  0.311
  2.59, -0.070, -0.000, -0.292,  0.299
  2.72,  0.206, -0.352, -0.312,  0.329
  2.83, -0.070, -0.000, -0.343,  0.243
  2.93,  0.207,  0.272, -0.284,  0.206
  3.04,  0.232,  0.493, -0.198,  0.154
  3.14,  0.242,  0.647, -0.091,  0.106
  3.26, -0.070, -0.000, -0.045,  0.044
  3.38,  0.252,  0.652,  0.094, -0.003
  3.50, -0.070, -0.000,  0.119, -0.059
  3.63, -0.070, -0.000,  0.158, -0.120
  3.77,  0.242,  0.647,  0.262, -0.148
  3.87,  0.242,  0.647,  0.331, -0.170
  3.98,  0.253,  0.630,  0.399, -0.183
  4.15, -0.070, -0.000,  0.301, -0.253
  4.25,  0.242,  0.624,  0.394, -0.265
  4.35,  0.242,  0.624,  0.384, -0.292
  4.46,  0.242,  0.624,  0.437, -0.296
  4.56,  0.242,  0.624,  0.489, -0.298
  4.67,  0.242,  0.624,  0.479, -0.332
  4.77,  0.242,  0.624,  0.464, -0.352
  4.89, -0.070, -0.000,  0.443, -0.372
  5.03, -0.070, -0.000,  0.442, -0.388
  5.15,  0.242,  0.624,  0.505, -0.381
  5.26,  0.242,  0.624,  0.489, -0.395
  5.36,  0.242,  0.624,  0.532, -0.389
  5.47,  0.242,  0.624,  0.517, -0.402
  5.57,  0.242,  0.624,  0.553, -0.396
  5.68,  0.242,  0.624,  0.589, -0.389
  5.78,  0.242,  0.624,  0.565, -0.404
  5.88,  0.242,  0.624,  0.532, -0.419
  5.99,  0.264,  0.613,  0.573, -0.406
  6.09,  0.242,  0.624,  0.609, -0.398
  6.20,  0.242,  0.624,  0.640, -0.392
  6.34,  0.242,  0.624,  0.603, -0.407
  6.45,  0.242,  0.624,  0.649, -0.396
  6.55, -0.070, -0.000,  0.547, -0.433
  6.65, -0.070, -0.000,  0.522, -0.444
  6.79,  0.242,  0.624,  0.574, -0.429
  6.89,  0.264,  0.613,  0.613, -0.415
  6.99,  0.242,  0.624,  0.643, -0.406
  7.11,  0.242,  0.624,  0.592, -0.426
  7.24,  0.242,  0.624,  0.629, -0.416
  7.34,  0.242,  0.624,  0.598, -0.428
  7.44,  0.242,  0.624,  0.628, -0.419
  7.56,  0.242,  0.624,  0.656, -0.411
  7.69,  0.242,  0.624,  0.690, -0.400
  7.79,  0.242,  0.624,  0.713, -0.393
  7.90,  0.242,  0.624,  0.733, -0.387
  8.00, -0.036,  0.295,  0.700, -0.411
  8.10,  0.242,  0.624,  0.724, -0.403
  8.21,  0.242,  0.624,  0.742, -0.396
  8.32, -0.070, -0.000,  0.698, -0.412
  8.45,  0.242,  0.624,  0.726, -0.401
  8.56,  0.242,  0.624,  0.689, -0.413
  8.66,  0.242,  0.624,  0.711, -0.405
  8.77,  0.242,  0.624,  0.732, -0.398
  8.87,  0.242,  0.624,  0.750, -0.391
  8.97,  0.242,  0.624,  0.767, -0.385
  9.08,  0.242,  0.624,  0.782, -0.380
  9.18,  0.242,  0.624,  0.796, -0.375
  9.28,  0.242,  0.624,  0.810, -0.368
  9.39,  0.242,  0.624,  0.820, -0.365
  9.49,  0.247,  0.621,  0.831, -0.360
  9.60,  0.242,  0.624,  0.840, -0.357
  9.70,  0.242,  0.624,  0.847, -0.355
  9.81,  0.242,  0.624,  0.785, -0.381
  9.91,  0.242,  0.624,  0.740, -0.396
 10.01,  0.242,  0.624,  0.757, -0.390
 10.12,  0.242,  0.624,  0.772, -0.384
 10.22,  0.242,  0.624,  0.787, -0.379
 10.33,  0.242,  0.624,  0.800, -0.374
 10.43,  0.242,  0.624,  0.811, -0.370
 10.54, -0.070, -0.000,  0.757, -0.388
 10.67,  0.242,  0.624,  0.778, -0.381
 10.77,  0.242,  0.624,  0.791, -0.376
 10.88,  0.242,  0.624,  0.804, -0.371
 10.98,  0.242,  0.624,  0.815, -0.367
 11.09,  0.242,  0.624,  0.827, -0.363
 11.19,  0.242,  0.624,  0.836, -0.359
 11.30,  0.242,  0.624,  0.782, -0.378
 11.40,  0.242,  0.624,  0.796, -0.373
 11.51,  0.242,  0.624,  0.807, -0.369
 11.61,  0.242,  0.624,  0.819, -0.365
 11.71,  0.242,  0.624,  0.829, -0.362
 11.82,  0.242,  0.624,  0.837, -0.359
 11.93, -0.070, -0.000,  0.779, -0.380
 12.06,  0.242,  0.624,  0.797, -0.374
 12.17,  0.264,  0.635,  0.750, -0.387
 12.27,  0.242,  0.624,  0.767, -0.382
 12.37,  0.242,  0.579,  0.780, -0.374
 12.48,  0.254,  0.425,  0.781, -0.354
 12.58,  0.207,  0.261,  0.739, -0.346
 12.68,  0.193,  0.113,  0.676, -0.334
 12.79,  0.189, -0.028,  0.602, -0.309
 12.89,  0.192, -0.182,  0.520, -0.275
 13.00,  0.190, -0.340,  0.419, -0.232
 13.10,  0.181, -0.459,  0.320, -0.187
 13.21,  0.180, -0.528,  0.210, -0.128
 13.31,  0.188, -0.545,  0.129, -0.077
 13.41,  0.180, -0.550,  0.051, -0.026
 13.52,  0.180, -0.562, -0.036, -0.028
 13.62,  0.172, -0.579, -0.104,  0.017
 13.73,  0.180, -0.584, -0.169,  0.060
 13.83,  0.180, -0.584, -0.225,  0.098
 13.94,  0.204, -0.601, -0.279,  0.097
 14.04,  0.180, -0.584, -0.324,  0.131
 14.14,  0.180, -0.584, -0.360,  0.165
 14.25,  0.180, -0.584, -0.395,  0.193
 14.35,  0.180, -0.573, -0.436,  0.173
 14.47, -0.070, -0.000, -0.469,  0.155
 14.59,  0.174, -0.420, -0.494,  0.174
 14.70,  0.175, -0.261, -0.507,  0.135
 14.80,  0.178, -0.125, -0.491,  0.120
 14.91,  0.172, -0.074, -0.471,  0.096
 15.01,  0.172, -0.074, -0.453,  0.072
 15.11,  0.175, -0.099, -0.460,  0.024
 15.22,  0.165, -0.091, -0.472, -0.028
 15.32,  0.165, -0.091, -0.462, -0.042
 15.43,  0.165, -0.091, -0.452, -0.056
 15.53,  0.165, -0.091, -0.443, -0.069
 15.63,  0.165, -0.091, -0.435, -0.080
 15.74,  0.165, -0.091, -0.428, -0.091
 15.85, -0.070, -0.000, -0.442, -0.125
 15.98,  0.165, -0.091, -0.431, -0.133
 16.09,  0.112, -0.034, -0.434, -0.151
 16.19,  0.165, -0.091, -0.427, -0.155
 16.29,  0.165, -0.091, -0.443, -0.186
